TITLE	
DATA TYPE	
ORIGIN	JASCO
OWNER	
DATE	25/02/21
TIME	12:06:49
SPECTROMETER/DATA SYSTEM	
LOCALE	1033
RESOLUTION	
DELTAX	-1
XUNITS	NANOMETERS
YUNITS	CD [mdeg]
Y2UNITS	HT [V]
Y3UNITS	ABSORBANCE
FIRSTX	  260.0000
LASTX	  190.0000
NPOINTS	      71
FIRSTY	    -0.44037
MAXY	    11.05813
MINY	   -28.63793
XYDATA
260.0000	-0.440367	270.909	0.950037
259.0000	-0.413843	271.176	0.953108
258.0000	-0.344807	271.467	0.956455
257.0000	-0.335804	271.765	0.959885
256.0000	-0.347535	272.003	0.962617
255.0000	-0.379322	272.297	0.965985
254.0000	-0.468	272.518	0.968517
253.0000	-0.507315	272.757	0.971259
252.0000	-0.53619	272.965	0.973637
251.0000	-0.583052	273.166	0.975936
250.0000	-0.609538	273.373	0.978301
249.0000	-0.639581	273.537	0.980173
248.0000	-0.684326	273.708	0.98213
247.0000	-0.701902	273.88	0.98409
246.0000	-0.770035	274.07	0.986258
245.0000	-1.02454	274.296	0.988838
244.0000	-1.26904	274.47	0.990817
243.0000	-1.66863	274.701	0.993454
242.0000	-2.06526	275.018	0.997053
241.0000	-2.54773	275.423	1.00165
240.0000	-3.07432	275.912	1.00721
239.0000	-3.73702	276.516	1.01405
238.0000	-4.49177	277.143	1.02114
237.0000	-5.44841	277.835	1.02895
236.0000	-6.60969	278.658	1.03823
235.0000	-7.8515	279.543	1.04817
234.0000	-9.24751	280.641	1.06046
233.0000	-10.7709	281.815	1.07356
232.0000	-12.0687	282.862	1.08522
231.0000	-13.6417	284.021	1.09806
230.0000	-15.2538	285.267	1.11184
229.0000	-16.8489	286.63	1.12684
228.0000	-18.4742	288.195	1.144
227.0000	-19.8557	289.776	1.16125
226.0000	-21.2301	291.407	1.17897
225.0000	-22.1806	292.909	1.19521
224.0000	-23.1134	294.503	1.21238
223.0000	-23.6311	296.07	1.22917
222.0000	-23.9697	297.795	1.24757
221.0000	-24.0313	299.59	1.26662
220.0000	-23.9003	301.548	1.2873
219.0000	-23.784	303.646	1.30934
218.0000	-23.5983	305.861	1.33247
217.0000	-23.58	307.825	1.35285
216.0000	-23.4533	309.969	1.37499
215.0000	-23.5136	312.188	1.39776
214.0000	-23.7416	314.495	1.4213
213.0000	-23.9968	317.097	1.44767
212.0000	-24.6695	319.756	1.47443
211.0000	-25.6651	323.013	1.50696
210.0000	-26.8147	326.436	1.54085
209.0000	-27.9537	330.453	1.58025
208.0000	-28.6379	335.253	1.6268
207.0000	-28.5117	340.983	1.68166
206.0000	-27.5771	347.914	1.74698
205.0000	-25.1718	357.188	1.83271
204.0000	-22.0143	368.555	1.93527
203.0000	-17.712	384.136	2.07163
202.0000	-12.545	406.096	2.25613
201.0000	-5.94962	438.276	2.51188
200.0000	1.65257	489.404	2.88736
199.0000	8.50716	569.86	3.41588
198.0000	11.0581	698.575	4.14221
197.0000	9.46627	878.65	4.98642
196.0000	4.48424	1031.39	5.59292
195.0000	2.78433	1102.13	5.84791
194.0000	1.44289	1105.43	5.85947
193.0000	0.0892895	1105.51	5.85974
192.0000	0.321818	1105.57	5.85995
191.0000	1.33444	1105.63	5.86017
190.0000	1.75828	1105.68	5.86033

##### Extended Information
[Comments]
Sample name
Comment
User
Division
Company	Wake Forest University

[Detailed Information]
Creation date	2/21/2025 1:06 PM

Data array type	Linear data array * 3
Horizontal axis	Wavelength [nm]
Vertical axis(1)	CD [mdeg]
Vertical axis(2)	HT [V]
Vertical axis(3)	Abs
Start	260 nm
End	190 nm
Data interval	1 nm
Data points	71      

[Measurement Information]
Instrument name	J-1500
Model name	J-1500
Serial No.	D067861638

Detector	PM-539
Detector S/N	D067861638
  Lock-in amp.	X mode
  HT volt	Auto

Accessory	PTC-517
Accessory S/N	C036261646
  Temperature	20.01 C
  Control sensor	Holder
  Monitor sensor	Holder
  Start Mode	Keep target temperature +/-0.10 deg C while 5 seconds

Measurement date	2/21/2025 12:31 PM

Parameter file	C:\Users\JascoUSR\Desktop\Albanese\standard_260_200.cdsp
CD Overload detect	60
Photometric mode	CD, HT, Abs
Measure range	260 - 190 nm
Data pitch	1 nm
CD scale	200 mdeg/0.1 dOD
FL scale	200 mdeg/0.1 dOD
D.I.T.	1 sec
Bandwidth	1.00 nm
Start mode	Immediately
Scanning mode	Continuous
Scanning speed	200 nm/min
Baseline correction	None
Shutter control	Manual
Accumulations	8
N2 Flowmeter	Manual


